t,x,tau
140000,0.25090885469112106,100.0
140001,0.25965430968763875,100.0
140002,0.27689295924038854,100.0
140003,0.30384964919000923,100.0
140004,0.3417319661003108,100.0
140005,0.39159354188013,100.0
140006,0.4537824702590151,100.0
140007,0.5269259267530704,100.0
140008,0.6070769887593639,100.0
140009,0.6881521930096441,100.0
140010,0.7638275620354361,100.0
140011,0.8294482005254973,100.0
140012,0.8826864654053843,100.0
140013,0.9231191283178033,100.0
140014,0.9514894770190366,100.0
140015,0.9691117578743523,100.0
140016,0.9775061497276365,100.0
140017,0.9782052803453836,100.0
140018,0.9726595730324809,100.0
140019,0.9621909093573913,100.0
140020,0.947964916738851,100.0
140021,0.930966047403901,100.0
140022,0.9119703214761221,100.0
140023,0.8915225475444406,100.0
140024,0.8699383287526987,100.0
140025,0.8473589035450247,100.0
140026,0.8238740529445021,100.0
140027,0.799681650162601,100.0
140028,0.7752023618112082,100.0
140029,0.7511039715322548,100.0
140030,0.7282752577023152,100.0
140031,0.7077932199161135,100.0
140032,0.6908920678074497,100.0
140033,0.6789339209493492,100.0
140034,0.6733873256042832,100.0
140035,0.6758127916988896,100.0
140036,0.6878199869380885,100.0
140037,0.7109058357557738,100.0
140038,0.7460421011429502,100.0
140039,0.7928933890756378,100.0
140040,0.8486552307767014,100.0
140041,0.9071303741101902,100.0
140042,0.9599419217509593,100.0
140043,1.0005081517134475,100.0
140044,1.027036469775336,100.0
140045,1.0418018338967765,100.0
140046,1.0487798975779168,100.0
140047,1.0519558062527223,100.0
140048,1.0546223314804062,100.0
140049,1.0592086462966381,100.0
140050,1.067291427182565,100.0
140051,1.079652815837499,100.0
140052,1.0963658815358106,100.0
140053,1.1169208397804107,100.0
140054,1.1403896345199176,100.0
140055,1.165598559173978,100.0
140056,1.1912719181460119,100.0
140057,1.2161361417510468,100.0
140058,1.239010076692019,100.0
140059,1.2589104563932345,100.0
140060,1.275163594405879,100.0
140061,1.2874876203796293,100.0
140062,1.2960227743262354,100.0
140063,1.3013125604296254,100.0
140064,1.3141906488608663,100.0
140065,1.3264281863419844,100.0
140066,1.3296599656895194,100.0
140067,1.3220070437093856,100.0
140068,1.3081428870499177,100.0
140069,1.293665667154292,100.0
140070,1.2821817052191786,100.0
140071,1.2752996545176707,100.0
140072,1.2733959626552258,100.0
140073,1.276259224590759,100.0
140074,1.2834088592938824,100.0
140075,1.2941014278074836,100.0
140076,1.3071470902903386,100.0
140077,1.3207625708290318,100.0
140078,1.3327055111646784,100.0
140079,1.3407317029130947,100.0
140080,1.3431165796515887,100.0
140081,1.3389349617281683,100.0
140082,1.328030544876176,100.0
140083,1.310811714185828,100.0
140084,1.288025198823301,100.0
140085,1.2605810403251367,100.0
140086,1.2294390979057714,100.0
140087,1.1955420459912152,100.0
140088,1.1597765609376862,100.0
140089,1.122947988429522,100.0
140090,1.0857578791902334,100.0
140091,1.0487777076714697,100.0
140092,1.0124177675769044,100.0
140093,0.9768998330648444,100.0
140094,0.9422546240313288,100.0
140095,0.9083724018030104,100.0
140096,0.8751220128941916,100.0
140097,0.8425069672637056,100.0
140098,0.8107770451536374,100.0
140099,0.7804498760450975,100.0
140100,0.7522823854733419,100.0
140101,0.7272358682386704,100.0
140102,0.7064430710120354,100.0
140103,0.6911772090488527,100.0
140104,0.6828290103453282,100.0
140105,0.6828910180923201,100.0
140106,0.692913984417197,100.0
140107,0.7143454912573942,100.0
140108,0.7481225236814077,100.0
140109,0.7939057542127808,100.0
140110,0.8489442308260114,100.0
140111,0.9071421328909639,100.0
140112,0.9601633383173636,100.0
140113,1.0013037432886989,100.0
140114,1.0285579071031283,100.0
140115,1.0440325329173317,100.0
140116,1.0516200590875635,100.0
140117,1.0552804262104618,100.0
140118,1.0583072459555334,100.0
140119,1.0631384148626384,100.0
140120,1.0713600518660336,100.0
140121,1.0837631044647558,100.0
140122,1.100429807279107,100.0
140123,1.1208611851178762,100.0
140124,1.144142121566773,100.0
140125,1.1691134748784138,100.0
140126,1.1945146927513441,100.0
140127,1.2190868870095835,100.0
140128,1.2416622919263747,100.0
140129,1.2612690216999503,100.0
140130,1.2772421876065532,100.0
140131,1.2893058969726017,100.0
140132,1.2976037496675383,100.0
140133,1.302680517978938,100.0
140134,1.3054311132391454,100.0
140135,1.3070321055237877,100.0
140136,1.3088577043684475,100.0
140137,1.3123511471224811,100.0
140138,1.318759088704881,100.0
140139,1.3285262554765946,100.0
140140,1.3400712684846612,100.0
140141,1.3482434327564055,100.0
140142,1.3451441296678552,100.0
140143,1.3259775070985802,100.0
140144,1.2931764317063186,100.0
140145,1.2529437558235286,100.0
140146,1.210790965107538,100.0
140147,1.1700761274320295,100.0
140148,1.1321780685235998,100.0
140149,1.0970214695396598,100.0
140150,1.0635893469512414,100.0
140151,1.0303847054087178,100.0
140152,0.9958522371948121,100.0
140153,0.9587502043302489,100.0
140154,0.9184225291261272,100.0
140155,0.8749027765968906,100.0
140156,0.8288263306849641,100.0
140157,0.781210108524853,100.0
140158,0.7332043133701664,100.0
140159,0.6858969467621503,100.0
140160,0.6401990051838157,100.0
140161,0.5968005648742887,100.0
140162,0.5561732389348351,100.0
140163,0.5185940064150418,100.0
140164,0.48417184286149895,100.0
140165,0.45181387396491923,100.0
140166,0.42148675628392285,100.0
140167,0.3938901470059781,100.0
140168,0.3697794750748582,100.0
140169,0.3494932910889977,100.0
140170,0.33285660203895073,100.0
140171,0.31928363181127356,100.0
140172,0.30795871312232226,100.0
140173,0.2980198066048927,100.0
140174,0.2886946650906845,100.0
140175,0.27938321206153977,100.0
140176,0.26970645382657404,100.0
140177,0.25953417222404945,100.0
140178,0.2489807292475718,100.0
140179,0.23835581612811735,100.0
140180,0.22808487815561584,100.0
140181,0.21863770139360406,100.0
140182,0.21049391077531088,100.0
140183,0.20414814160128605,100.0
140184,0.20014282969985575,100.0
140185,0.19911568147068662,100.0
140186,0.20185139943275615,100.0
140187,0.20932556626379586,100.0
140188,0.2227204248111585,100.0
140189,0.24337965522109775,100.0
140190,0.2726612822582992,100.0
140191,0.311664024252036,100.0
140192,0.36086274799213414,100.0
140193,0.4197788916851021,100.0
140194,0.4868549466349135,100.0
140195,0.5596195021047361,100.0
140196,0.6350670053766571,100.0
140197,0.7100900615271367,100.0
140198,0.7818556401827291,100.0
140199,0.8480973280932297,100.0
140200,0.9073033227586369,100.0
140201,0.9587745401507595,100.0
140202,1.002565289594897,100.0
140203,1.0393547177978484,100.0
140204,1.0702985528601925,100.0
140205,1.0968901072321395,100.0
140206,1.1208320229232995,100.0
140207,1.1438836701600565,100.0
140208,1.1675863735610736,100.0
140209,1.1926627214217258,100.0
140210,1.2178126111850702,100.0
140211,1.238180360687743,100.0
140212,1.2460843945010769,100.0
140213,1.2367441059596713,100.0
140214,1.212547782523433,100.0
140215,1.179762791638066,100.0
140216,1.1440374598207161,100.0
140217,1.1088756064352312,100.0
140218,1.075791283605559,100.0
140219,1.0448329708420072,100.0
140220,1.015097962745583,100.0
140221,0.9851959905323261,100.0
140222,0.953671702929703,100.0
140223,0.9193734499545343,100.0
140224,0.8817175632735683,100.0
140225,0.8407839534431931,100.0
140226,0.7972256978019232,100.0
140227,0.7520543444349679,100.0
140228,0.7064020176923602,100.0
140229,0.66133584870544,100.0
140230,0.6177496328046669,100.0
140231,0.5763226332538148,100.0
140232,0.5375221603002365,100.0
140233,0.5016262586636452,100.0
140234,0.46874886518235004,100.0
140235,0.4388576919920694,100.0
140236,0.4117826409597778,100.0
140237,0.38722005053179603,100.0
140238,0.3647469859793193,100.0
140239,0.3438701991014941,100.0
140240,0.3241405202324166,100.0
140241,0.3053479932983211,100.0
140242,0.2877481785171925,100.0
140243,0.2721643268369509,100.0
140244,0.25984482489874694,100.0
140245,0.2522305020419099,100.0
140246,0.2507940041903663,100.0
140247,0.25687395179656514,100.0
140248,0.27146486306804724,100.0
140249,0.29508222952442215,100.0
140250,0.32782766415552556,100.0
140251,0.3696193873613195,100.0
140252,0.42038917391566005,100.0
140253,0.4800047568124495,100.0
140254,0.5477794350838153,100.0
140255,0.6217224681510652,100.0
140256,0.6981175746785739,100.0
140257,0.7720769396137444,100.0
140258,0.8389162409247697,100.0
140259,0.8953641784729653,100.0
140260,0.9399169786802184,100.0
140261,0.9725012166157562,100.0
140262,0.9939309567749515,100.0
140263,1.0054583764629161,100.0
140264,1.0084856192064748,100.0
140265,1.0044029216148234,100.0
140266,0.994293383513757,100.0
140267,0.9791464830276534,100.0
140268,0.9600027827567663,100.0
140269,0.9379548645722766,100.0
140270,0.9140561359309076,100.0
140271,0.8892207313935067,100.0
140272,0.864154681595217,100.0
140273,0.8393304835141271,100.0
140274,0.8150010670833783,100.0
140275,0.7912396611972532,100.0
140276,0.7679921755953322,100.0
140277,0.7451341389425699,100.0
140278,0.7225274875201525,100.0
140279,0.700070839029427,100.0
140280,0.6777348901349655,100.0
140281,0.655578359370932,100.0
140282,0.6337480527980188,100.0
140283,0.6124720224843396,100.0
140284,0.5920544434224724,100.0
140285,0.5728775608919049,100.0
140286,0.5554129371957249,100.0
140287,0.54024191882977,100.0
140288,0.5280828334375556,100.0
140289,0.5198186216780569,100.0
140290,0.5165126550603302,100.0
140291,0.5193935221584669,100.0
140292,0.5297864358043342,100.0
140293,0.5489776392563537,100.0
140294,0.578021391590784,100.0
140295,0.6175174469094428,100.0
140296,0.6673534435223116,100.0
140297,0.7262904799823199,100.0
140298,0.7911966554686943,100.0
140299,0.8561497466598921,100.0
140300,0.9127719315334826,100.0
140301,0.9531760574558901,100.0
140302,0.9736249002266979,100.0
140303,0.9752347208379477,100.0
140304,0.9618325561151908,100.0
140305,0.9376590980517805,100.0
140306,0.9061927958097037,100.0
140307,0.8698642659026176,100.0
140308,0.8301900404692973,100.0
140309,0.7880773870197986,100.0
140310,0.7442276788368752,100.0
140311,0.6995995293493262,100.0
140312,0.6557914945585598,100.0
140313,0.6150704742555891,100.0
140314,0.579957414720072,100.0
140315,0.5527741277631386,100.0
140316,0.5354109495587287,100.0
140317,0.5291379788374565,100.0
140318,0.5344208172802765,100.0
140319,0.5509204071914592,100.0
140320,0.5777603389876318,100.0
140321,0.6139026180183366,100.0
140322,0.6583653089116384,100.0
140323,0.7101002296440938,100.0
140324,0.7675446272201099,100.0
140325,0.8281309870938005,100.0
140326,0.8882426774056016,100.0
140327,0.9438815445550758,100.0
140328,0.991675448839643,100.0
140329,1.0295482877713678,100.0
140330,1.0567772059167069,100.0
140331,1.073657514540568,100.0
140332,1.0810922017764601,100.0
140333,1.0802713824443433,100.0
140334,1.0724683903840975,100.0
140335,1.058923334448593,100.0
140336,1.040779286573693,100.0
140337,1.0190463431400003,100.0
140338,0.9945798503487742,100.0
140339,0.9680682221797553,100.0
140340,0.9400338499183664,100.0
140341,0.9108577389483289,100.0
140342,0.8808411334118108,100.0
140343,0.8503064318159961,100.0
140344,0.8197085326147708,100.0
140345,0.7897065714067438,100.0
140346,0.761181962096557,100.0
140347,0.7352225173487121,100.0
140348,0.7130749917117529,100.0
140349,0.6960603471550245,100.0
140350,0.685470462950563,100.0
140351,0.6824880094920063,100.0
140352,0.68815956788819,100.0
140353,0.7034069540972416,100.0
140354,0.7290049156443368,100.0
140355,0.7653944603966197,100.0
140356,0.8121357062689228,100.0
140357,0.8668091615946515,100.0
140358,0.9237347710020913,100.0
140359,0.9744407655879743,100.0
140360,1.0115237276397684,100.0
140361,1.032586137145323,100.0
140362,1.0400490616288829,100.0
140363,1.0384616118319974,100.0
140364,1.032425340675149,100.0
140365,1.0257731415181695,100.0
140366,1.021430174179083,100.0
140367,1.0215608701676397,100.0
140368,1.0275986940113517,100.0
140369,1.040164731769991,100.0
140370,1.0589967609580406,100.0
140371,1.0830152627889118,100.0
140372,1.1105661976035661,100.0
140373,1.1397684541567668,100.0
140374,1.168837500937129,100.0
140375,1.196291777278317,100.0
140376,1.221025814881283,100.0
140377,1.2422884609647191,100.0
140378,1.259617180548578,100.0
140379,1.272767009950361,100.0
140380,1.2816542872239514,100.0
140381,1.2863200323650368,100.0
140382,1.2869088348618296,100.0
140383,1.2836565771031065,100.0
140384,1.2768821635608962,100.0
140385,1.2669815089732264,100.0
140386,1.2544243004261453,100.0
140387,1.2397550050624158,100.0
140388,1.223599548165008,100.0
140389,1.2066783236323984,100.0
140390,1.1898246695348502,100.0
140391,1.1740053107022383,100.0
140392,1.1603352760303176,100.0
140393,1.1500747958257485,100.0
140394,1.144590540875668,100.0
140395,1.1452564637383542,100.0
140396,1.1532464728790393,100.0
140397,1.1690942415076537,100.0
140398,1.1917431189401402,100.0
140399,1.216931058690549,100.0
140400,1.236564473163984,100.0
140401,1.2431698498726989,100.0
140402,1.2365973970868047,100.0
140403,1.2232353153437026,100.0
140404,1.210599603416433,100.0
140405,1.204205054754718,100.0
140406,1.2067279219394298,100.0
140407,1.2180159263212085,100.0
140408,1.2356116255035519,100.0
140409,1.2557421143943754,100.0
140410,1.2744511005555792,100.0
140411,1.288477137092396,100.0
140412,1.295726851173306,100.0
140413,1.2954109008327808,100.0
140414,1.2879379924297536,100.0
140415,1.274638487052174,100.0
140416,1.2574357668978475,100.0
140417,1.2385674852069204,100.0
140418,1.2203565543160826,100.0
140419,1.20500233024818,100.0
140420,1.1944031109744513,100.0
140421,1.1900379331674635,100.0
140422,1.192888186098074,100.0
140423,1.2032882894803663,100.0
140424,1.220496031753067,100.0
140425,1.2417836144205265,100.0
140426,1.2614152361616997,100.0
140427,1.2713283437244982,100.0
140428,1.2651072171580473,100.0
140429,1.241906531083248,100.0
140430,1.2057854449488163,100.0
140431,1.1624245727968845,100.0
140432,1.1169236586980211,100.0
140433,1.0732061771826864,100.0
140434,1.0341630449306636,100.0
140435,1.00193601068594,100.0
140436,0.9781233984230466,100.0
140437,0.9638617034412766,100.0
140438,0.9597952914760738,100.0
140439,0.9659757992993961,100.0
140440,0.9817568370613833,100.0
140441,1.005757951971304,100.0
140442,1.0359489746651427,100.0
140443,1.0698593367080191,100.0
140444,1.1048768876078805,100.0
140445,1.1385821956531927,100.0
140446,1.1690507087657553,100.0
140447,1.1950509232325814,100.0
140448,1.216103361047343,100.0
140449,1.232419879868539,100.0
140450,1.2447700046957777,100.0
140451,1.2543175670015274,100.0
140452,1.2624548393858803,100.0
140453,1.2706395130197536,100.0
140454,1.2802054846669841,100.0
140455,1.2920562140276337,100.0
140456,1.3060487215339938,100.0
140457,1.3198465658586365,100.0
140458,1.3277306278186614,100.0
140459,1.322163250093804,100.0
140460,1.2999358877294622,100.0
140461,1.2653060670660645,100.0
140462,1.2256187978947881,100.0
140463,1.1868999708076537,100.0
140464,1.1526894855342225,100.0
140465,1.1243287210648332,100.0
140466,1.101491909656297,100.0
140467,1.0826970388149713,100.0
140468,1.0657287254900962,100.0
140469,1.048013443509797,100.0
140470,1.0270088178177192,100.0
140471,1.000660361488767,100.0
140472,0.9678631233034672,100.0
140473,0.928709614059831,100.0
140474,0.8843425500200699,100.0
140475,0.8364979953591904,100.0
140476,0.7870131276625861,100.0
140477,0.7375010180006287,100.0
140478,0.6892223602745184,100.0
140479,0.6430881381918995,100.0
140480,0.5997207394167886,100.0
140481,0.559528215469988,100.0
140482,0.5227713923987358,100.0
140483,0.48961786624669135,100.0
140484,0.4601830196349229,100.0
140485,0.4345597882416602,100.0
140486,0.41283840138687505,100.0
140487,0.39511589148040066,100.0
140488,0.3814933167845542,100.0
140489,0.3720567512836568,100.0
140490,0.3668368987985127,100.0
140491,0.3657431419816255,100.0
140492,0.36847304400026515,100.0
140493,0.37440936956802573,100.0
140494,0.3825322825141616,100.0
140495,0.39138893525245755,100.0
140496,0.3991699601970281,100.0
140497,0.4039418180473511,100.0
140498,0.40407262046540054,100.0
140499,0.3988270143086402,100.0
140500,0.38890710737473005,100.0
140501,0.3764408135469084,100.0
140502,0.36412445711552144,100.0
140503,0.3541308485858902,100.0
140504,0.3474974997055983,100.0
140505,0.3439451045835984,100.0
140506,0.34204327630114695,100.0
140507,0.3398146828176607,100.0
140508,0.3355891735271322,100.0
140509,0.32861665361902775,100.0
140510,0.31911763319323927,100.0
140511,0.30792193181842054,100.0
140512,0.2960619058896327,100.0
140513,0.28452804181162344,100.0
140514,0.2741841898258259,100.0
140515,0.26576353089968013,100.0
140516,0.25987831697530434,100.0
140517,0.25700022510407605,100.0
140518,0.2573872453975092,100.0
140519,0.2609628471301072,100.0
140520,0.26719504217399204,100.0
140521,0.2750511419268881,100.0
140522,0.28308811848375715,100.0
140523,0.28968757749279983,100.0
140524,0.293401273672129,100.0
140525,0.2933493540788571,100.0
140526,0.28956854293740625,100.0
140527,0.28313787937284374,100.0
140528,0.27595997770472025,100.0
140529,0.27036195783239514,100.0
140530,0.2688597316950912,100.0
140531,0.27414170594609266,100.0
140532,0.2889628657289625,100.0
140533,0.31561301126761715,100.0
140534,0.35496302609783986,100.0
140535,0.40567451553935735,100.0
140536,0.4643317534855921,100.0
140537,0.5264847981865212,100.0
140538,0.5877635460717922,100.0
140539,0.6443876814379587,100.0
140540,0.693100862455105,100.0
140541,0.730978882700785,100.0
140542,0.7555703338706643,100.0
140543,0.7655022460240597,100.0
140544,0.761128456704072,100.0
140545,0.7445607186182984,100.0
140546,0.7189564500136603,100.0
140547,0.6875967561566165,100.0
140548,0.6532713168635539,100.0
140549,0.6180657021773783,100.0
140550,0.5833951791526574,100.0
140551,0.5501244973752453,100.0
140552,0.518689543240334,100.0
140553,0.4891967720672567,100.0
140554,0.4615067373062065,100.0
140555,0.435320464538871,100.0
140556,0.41029098022372046,100.0
140557,0.38617864304044036,100.0
140558,0.36305092487230534,100.0
140559,0.3414775294762137,100.0
140560,0.32259292294887393,100.0
140561,0.30792523119512016,100.0
140562,0.29910259126737443,100.0
140563,0.2975365317166541,100.0
140564,0.30403483324637487,100.0
140565,0.318472852331287,100.0
140566,0.33981050863710516,100.0
140567,0.3665321589625067,100.0
140568,0.3972643031831815,100.0
140569,0.43129018006279823,100.0
140570,0.4688291563407282,100.0
140571,0.511042392401623,100.0
140572,0.5596739007700875,100.0
140573,0.6161611878165519,100.0
140574,0.6802749953558865,100.0
140575,0.7490840117867381,100.0
140576,0.8174428726223604,100.0
140577,0.8799507186181749,100.0
140578,0.9327535714751382,100.0
140579,0.9740672935049355,100.0
140580,1.0037408054407018,100.0
140581,1.022593303629121,100.0
140582,1.0319040582954921,100.0
140583,1.0331087839727695,100.0
140584,1.0276440119354884,100.0
140585,1.0168770331241448,100.0
140586,1.0020804199509274,100.0
140587,0.9844281855601936,100.0
140588,0.9650012177434633,100.0
140589,0.9447947778514812,100.0
140590,0.9247228684320622,100.0
140591,0.905614723817248,100.0
140592,0.8881987469104383,100.0
140593,0.8730700810665368,100.0
140594,0.8606408934658769,100.0
140595,0.8510781278749946,100.0
140596,0.8442414999582075,100.0
140597,0.839643143740554,100.0
140598,0.8364578499675256,100.0
140599,0.8336172127255234,100.0
140600,0.8300127731930272,100.0
140601,0.824786761324694,100.0
140602,0.8175919459163681,100.0
140603,0.8086546590107442,100.0
140604,0.7986131658884205,100.0
140605,0.7882495648606008,100.0
140606,0.7782120356139445,100.0
140607,0.7687979879314051,100.0
140608,0.759879730347096,100.0
140609,0.7510083760852614,100.0
140610,0.7416299040192948,100.0
140611,0.7312897412449262,100.0
140612,0.7197446815585382,100.0
140613,0.706982288218125,100.0
140614,0.6931894698775398,100.0
140615,0.6787072291823399,100.0
140616,0.6639891190157372,100.0
140617,0.6495657974794622,100.0
140618,0.6360091981425916,100.0
140619,0.6238856617197368,100.0
140620,0.6136895885207266,100.0
140621,0.6057595389879604,100.0
140622,0.6001936771491061,100.0
140623,0.5967917459909485,100.0
140624,0.595049845757341,100.0
